N,tempo(ms)
500000,10.800000
1000000,15.200000
1500000,24.600000
2000000,30.600000
2500000,39.400002
3000000,46.200001
3500000,55.400002
4000000,63.200001
4500000,71.400002
5000000,78.800003
5500000,86.800003
6000000,94.599998
6500000,104.199997
7000000,111.800003
7500000,119.800003
8000000,127.400002
8500000,136.600006
9000000,144.199997
9500000,150.800003
10000000,157.800003
